Wavenumber,Intensity,DataPoint
470.5533,2.418413,1
474.4103,2.554376,2
478.2673,2.696415,3
482.1243,2.790811,4
485.9813,2.807886,5
489.8383,2.783713,6
493.6953,2.751843,7
497.5523,2.699562,8
501.4093,2.624385,9
505.2663,2.565741,10
509.1233,2.538219,11
512.9803,2.488888,12
516.8373,2.358538,13
520.6943,2.133996,14
524.5513,1.815495,15
528.4083,1.402668,16
532.2653,0.9561328,17
536.1223,0.6071786,18
539.9792,0.4486994,19
543.8362,0.4566448,20
547.6932,0.5551028,21
551.5502,0.7058869,22
555.4072,0.8948272,23
559.2642,1.091491,24
563.1212,1.282697,25
566.9782,1.506147,26
570.8352,1.798682,27
574.6922,2.141606,28
578.5492,2.494828,29
582.4062,2.847597,30
586.2632,3.198584,31
590.1202,3.526348,32
593.9772,3.81749,33
597.8342,4.08288,34
601.6912,4.306393,35
605.5482,4.420601,36
609.4052,4.381047,37
613.2621,4.235723,38
617.1191,4.083752,39
620.9761,3.996408,40
624.8331,4.009202,41
628.6901,4.147068,42
632.5471,4.404198,43
636.4041,4.718229,44
640.2611,5.002993,45
644.1181,5.195258,46
647.9751,5.252133,47
651.8321,5.134172,48
655.6891,4.827421,49
659.5461,4.37786,50
663.4031,3.89364,51
667.2601,3.510062,52
671.1171,3.309958,53
674.9741,3.220708,54
678.8311,3.014025,55
682.688,2.497271,56
686.545,1.724014,57
690.402,0.9527816,58
694.259,0.4013372,59
698.116,0.1334654,60
701.973,0.187761,61
705.83,0.6650792,62
709.687,1.585334,63
713.544,2.736888,64
717.401,3.770991,65
721.258,4.415027,66
725.115,4.54439,67
728.972,4.134778,68
732.829,3.27312,69
736.686,2.200336,70
740.543,1.226807,71
744.4,0.554002,72
748.257,0.1964013,73
752.114,0.05711958,74
755.9709,0.03227138,75
759.8279,0.06403679,76
763.6849,0.1661626,77
767.5419,0.421309,78
771.3989,0.9179401,79
775.2559,1.66816,80
779.1129,2.591179,81
782.9699,3.567956,82
786.8269,4.501171,83
790.6839,5.343224,84
794.5409,6.093454,85
798.3979,6.766651,86
802.2549,7.353598,87
806.1119,7.819312,88
809.9689,8.138355,89
813.8259,8.311934,90
817.6829,8.347504,91
821.5399,8.243435,92
825.3969,7.99594,93
829.2538,7.60845,94
833.1108,7.118772,95
836.9678,6.656461,96
840.8248,6.442398,97
844.6818,6.646971,98
848.5388,7.223341,99
852.3958,7.927376,100
856.2528,8.514663,101
860.1098,8.880536,102
863.9668,9.027384,103
867.8238,8.987018,104
871.6808,8.809152,105
875.5378,8.560302,106
879.3948,8.285794,107
883.2518,7.991844,108
887.1088,7.656906,109
890.9658,7.211399,110
894.8228,6.541738,111
898.6798,5.639751,112
902.5368,4.781125,113
906.3938,4.430207,114
910.2508,4.861945,115
914.1078,5.906485,116
917.9648,7.10244,117
921.8218,8.04128,118
925.6788,8.535443,119
929.5358,8.576246,120
933.3928,8.276271,121
937.2498,7.846066,122
941.1068,7.511553,123
944.9637,7.382688,124
948.8207,7.398218,125
952.6777,7.403485,126
956.5347,7.297924,127
960.3917,7.137177,128
964.2487,7.085458,129
968.1057,7.233382,130
971.9627,7.484687,131
975.8197,7.68187,132
979.6767,7.812628,133
983.5337,7.983288,134
987.3907,8.186477,135
991.2477,8.231336,136
995.1047,7.971292,137
998.9617,7.500823,138
1002.819,7.042343,139
1006.676,6.693364,140
1010.533,6.343311,141
1014.39,5.791565,142
1018.247,4.933122,143
1022.104,3.934071,144
1025.961,3.271806,145
1029.818,3.456389,146
1033.675,4.560836,147
1037.532,6.063505,148
1041.389,7.253153,149
1045.246,7.763776,150
1049.103,7.671937,151
1052.96,7.199643,152
1056.817,6.50013,153
1060.674,5.712686,154
1064.531,5.047126,155
1068.388,4.718508,156
1072.245,4.83239,157
1076.102,5.347488,158
1079.958,6.110922,159
1083.816,6.936475,160
1087.672,7.702569,161
1091.53,8.387925,162
1095.386,8.998986,163
1099.244,9.494897,164
1103.1,9.824405,165
1106.958,10.00765,166
1110.814,10.13073,167
1114.672,10.2681,168
1118.528,10.43834,169
1122.385,10.61427,170
1126.242,10.75092,171
1130.099,10.82372,172
1133.956,10.84138,173
1137.813,10.7736,174
1141.67,10.48212,175
1145.527,9.847283,176
1149.384,9.029543,177
1153.241,8.491208,178
1157.098,8.611395,179
1160.955,9.277802,180
1164.812,9.935596,181
1168.669,10.04727,182
1172.526,9.494258,183
1176.383,8.605468,184
1180.24,7.878364,185
1184.097,7.633096,186
1187.954,7.837662,187
1191.811,8.23807,188
1195.668,8.662832,189
1199.525,9.161192,190
1203.382,9.836769,191
1207.239,10.64297,192
1211.096,11.41631,193
1214.953,12.04106,194
1218.81,12.49243,195
1222.667,12.76862,196
1226.524,12.87703,197
1230.381,12.86329,198
1234.238,12.77698,199
1238.095,12.63023,200
1241.952,12.44913,201
1245.809,12.32483,202
1249.666,12.33932,203
1253.523,12.47097,204
1257.38,12.63666,205
1261.237,12.78691,206
1265.094,12.89344,207
1268.951,12.89484,208
1272.808,12.74464,209
1276.665,12.48426,210
1280.522,12.19075,211
1284.379,11.87959,212
1288.236,11.52511,213
1292.093,11.1311,214
1295.95,10.70125,215
1299.807,10.18891,216
1303.664,9.57772,217
1307.521,8.984675,218
1311.378,8.583759,219
1315.235,8.435465,220
1319.092,8.465226,221
1322.949,8.5808,222
1326.806,8.725343,223
1330.663,8.844946,224
1334.52,8.90624,225
1338.377,8.938932,226
1342.234,8.971466,227
1346.091,8.929053,228
1349.948,8.680738,229
1353.805,8.192681,230
1357.662,7.570854,231
1361.519,6.965087,232
1365.376,6.502465,233
1369.233,6.299439,234
1373.09,6.448082,235
1376.947,6.959542,236
1380.804,7.751419,237
1384.661,8.68963,238
1388.518,9.643315,239
1392.375,10.56574,240
1396.232,11.54631,241
1400.089,12.66551,242
1403.946,13.71148,243
1407.803,14.1805,244
1411.66,13.75837,245
1415.517,12.74954,246
1419.374,11.79969,247
1423.231,11.14689,248
1427.088,10.34337,249
1430.945,8.82478,250
1434.802,6.603246,251
1438.659,4.254538,252
1442.516,2.353215,253
1446.373,1.164461,254
1450.23,0.8660807,255
1454.087,1.714342,256
1457.944,3.691079,257
1461.801,6.115497,258
1465.658,7.984598,259
1469.515,8.80177,260
1473.372,8.798406,261
1477.229,8.243415,262
1481.086,6.956832,263
1484.943,4.88512,264
1488.8,2.83174,265
1492.657,1.984223,266
1496.514,2.691427,267
1500.371,4.196315,268
1504.228,5.617622,269
1508.085,6.67976,270
1511.942,7.410091,271
1515.799,7.791638,272
1519.656,8.032734,273
1523.513,8.565912,274
1527.37,9.312921,275
1531.227,9.491021,276
1535.084,8.727471,277
1538.941,7.878301,278
1542.798,7.998443,279
1546.655,8.848249,280
1550.512,9.292772,281
1554.369,9.031378,282
1558.226,8.978447,283
1562.083,9.790062,284
1565.94,10.87894,285
1569.797,11.27586,286
1573.654,10.84748,287
1577.511,10.21177,288
1581.368,9.824158,289
1585.225,9.513968,290
1589.082,8.733272,291
1592.939,7.145406,292
1596.796,5.226947,293
1600.653,4.250047,294
1604.51,5.188184,295
1608.367,7.569059,296
1612.224,9.899777,297
1616.081,11.27579,298
1619.938,11.9901,299
1623.795,12.52855,300
1627.652,12.80593,301
1631.509,12.70525,302
1635.366,12.52953,303
1639.223,12.38286,304
1643.08,11.8372,305
1646.937,10.85509,306
1650.794,10.35742,307
1654.651,11.06252,308
1658.508,12.28203,309
1662.365,12.73935,310
1666.222,12.20029,311
1670.079,11.42936,312
1673.936,10.88801,313
1677.793,10.45859,314
1681.65,10.22813,315
1685.507,10.46555,316
1689.364,10.83867,317
1693.221,10.70533,318
1697.078,10.3025,319
1700.935,10.61639,320
1704.792,11.82595,321
1708.649,12.90446,322
1712.506,13.1756,323
1716.363,13.25319,324
1720.22,13.79898,325
1724.077,14.24673,326
1727.934,13.64759,327
1731.791,12.18768,328
1735.648,10.93639,329
1739.505,10.42882,330
1743.362,10.37971,331
1747.219,10.62408,332
1751.076,11.4418,333
1754.933,12.82762,334
1758.79,14.13468,335
1762.647,14.74374,336
1766.504,14.73144,337
1770.361,14.68586,338
1774.218,15.06391,339
1778.075,15.77565,340
1781.932,16.2197,341
1785.789,15.77102,342
1789.646,14.44015,343
1793.503,12.98751,344
1797.36,12.20623,345
1801.217,12.23122,346
1805.074,12.74207,347
1808.931,13.55449,348
1812.788,14.60479,349
1816.645,15.57472,350
1820.502,16.10579,351
1824.359,16.3771,352
1828.216,16.93315,353
1832.073,17.83167,354
1835.93,18.45689,355
1839.786,18.38223,356
1843.644,17.97379,357
1847.5,17.81316,358
1851.358,17.8328,359
1855.214,17.41233,360
1859.072,16.22121,361
1862.928,14.67043,362
1866.786,13.54327,363
1870.642,13.34211,364
1874.5,13.95826,365
1878.356,14.85025,366
1882.214,15.56039,367
1886.07,16.11099,368
1889.927,16.84685,369
1893.784,17.89681,370
1897.641,18.94111,371
1901.498,19.55289,372
1905.355,19.5932,373
1909.212,19.18694,374
1913.069,18.51313,375
1916.926,17.78076,376
1920.783,17.23214,377
1924.64,16.91851,378
1928.497,16.53516,379
1932.354,15.71866,380
1936.211,14.54225,381
1940.068,13.5577,382
1943.925,13.2944,383
1947.782,13.80772,384
1951.639,14.73143,385
1955.496,15.66116,386
1959.353,16.43765,387
1963.21,17.13731,388
1967.067,17.8683,389
1970.924,18.58263,390
1974.781,19.07948,391
1978.638,19.20247,392
1982.495,19.02564,393
1986.352,18.82735,394
1990.209,18.88615,395
1994.066,19.30012,396
1997.923,19.95542,397
2001.78,20.62263,398
2005.637,21.10393,399
2009.494,21.34364,400
2013.351,21.42101,401
2017.208,21.43565,402
2021.065,21.41003,403
2024.922,21.30097,404
2028.779,21.07146,405
2032.636,20.73413,406
2036.493,20.35601,407
2040.35,20.04407,408
2044.207,19.89532,409
2048.064,19.92851,410
2051.921,20.07921,411
2055.778,20.27958,412
2059.635,20.52038,413
2063.492,20.81632,414
2067.349,21.13929,415
2071.206,21.41448,416
2075.063,21.56568,417
2078.92,21.54623,418
2082.777,21.35108,419
2086.634,21.0267,420
2090.491,20.65476,421
2094.348,20.30336,422
2098.205,20.00275,423
2102.062,19.77422,424
2105.919,19.65499,425
2109.776,19.67511,426
2113.633,19.83017,427
2117.49,20.09164,428
2121.347,20.42089,429
2125.204,20.75788,430
2129.061,21.02514,431
2132.918,21.16904,432
2136.775,21.1831,433
2140.632,21.07939,434
2144.489,20.86363,435
2148.346,20.55639,436
2152.203,20.21138,437
2156.06,19.88828,438
2159.917,19.62483,439
2163.774,19.44957,440
2167.631,19.39352,441
2171.488,19.46493,442
2175.345,19.63463,443
2179.202,19.86698,444
2183.059,20.14309,445
2186.916,20.43352,446
2190.773,20.6748,447
2194.63,20.80155,448
2198.487,20.78757,449
2202.344,20.63995,450
2206.201,20.379,451
2210.058,20.04637,452
2213.915,19.707,453
2217.772,19.41419,454
2221.629,19.18804,455
2225.486,19.04365,456
2229.343,19.01108,457
2233.2,19.10082,458
2237.057,19.27391,459
2240.914,19.47334,460
2244.771,19.66327,461
2248.628,19.81636,462
2252.485,19.89417,463
2256.342,19.87317,464
2260.199,19.76745,465
2264.056,19.59913,466
2267.913,19.37329,467
2271.77,19.1059,468
2275.627,18.83738,469
2279.484,18.58254,470
2283.341,18.3049,471
2287.198,17.9806,472
2291.055,17.6421,473
2294.912,17.30184,474
2298.769,16.87268,475
2302.626,16.2364,476
2306.483,15.37026,477
2310.34,14.34399,478
2314.197,13.22099,479
2318.054,12.03801,480
2321.911,10.85969,481
2325.768,9.771893,482
2329.625,8.841496,483
2333.482,8.165202,484
2337.339,7.904891,485
2341.196,8.107718,486
2345.053,8.470044,487
2348.91,8.468583,488
2352.767,7.86404,489
2356.624,7.005652,490
2360.481,6.551347,491
2364.338,6.954488,492
2368.195,8.277624,493
2372.052,10.34315,494
2375.909,12.8407,495
2379.766,15.30509,496
2383.623,17.22261,497
2387.48,18.31144,498
2391.337,18.66911,499
2395.194,18.61108,500
2399.051,18.41604,501
2402.908,18.23642,502
2406.765,18.14653,503
2410.622,18.17481,504
2414.479,18.30292,505
2418.336,18.49196,506
2422.193,18.71424,507
2426.05,18.94237,508
2429.907,19.13,509
2433.764,19.23298,510
2437.621,19.23753,511
2441.478,19.14941,512
2445.335,18.97336,513
2449.192,18.7245,514
2453.049,18.44294,515
2456.906,18.17371,516
2460.763,17.94143,517
2464.62,17.75972,518
2468.477,17.64999,519
2472.334,17.62995,520
2476.191,17.69266,521
2480.048,17.81301,522
2483.905,17.96542,523
2487.762,18.12019,524
2491.619,18.23449,525
2495.476,18.26794,526
2499.333,18.20649,527
2503.19,18.06159,528
2507.047,17.85449,529
2510.904,17.61283,530
2514.761,17.37281,531
2518.618,17.16814,532
2522.475,17.01819,533
2526.332,16.93339,534
2530.189,16.92273,535
2534.046,16.98548,536
2537.903,17.10428,537
2541.76,17.258,538
2545.617,17.43234,539
2549.474,17.60634,540
2553.331,17.73994,541
2557.188,17.79228,542
2561.045,17.74734,543
2564.902,17.60906,544
2568.759,17.38351,545
2572.615,17.08967,546
2576.473,16.78357,547
2580.33,16.54187,548
2584.187,16.4059,549
2588.043,16.35341,550
2591.901,16.33631,551
2595.758,16.33968,552
2599.615,16.39526,553
2603.471,16.53961,554
2607.329,16.76234,555
2611.186,16.99119,556
2615.042,17.12588,557
2618.899,17.09696,558
2622.757,16.90789,559
2626.614,16.63026,560
2630.47,16.35764,561
2634.327,16.1527,562
2638.185,16.02478,563
2642.042,15.94946,564
2645.898,15.90869,565
2649.755,15.91184,566
2653.613,15.97819,567
2657.469,16.10557,568
2661.326,16.26442,569
2665.183,16.4196,570
2669.041,16.54619,571
2672.897,16.62401,572
2676.754,16.63277,573
2680.611,16.56318,574
2684.469,16.42634,575
2688.325,16.24542,576
2692.182,16.04409,577
2696.039,15.84681,578
2699.896,15.68029,579
2703.753,15.56516,580
2707.61,15.51049,581
2711.467,15.5204,582
2715.324,15.59759,583
2719.181,15.73351,584
2723.038,15.90245,585
2726.895,16.07253,586
2730.752,16.21619,587
2734.609,16.30645,588
2738.466,16.31572,589
2742.323,16.23087,590
2746.18,16.06502,591
2750.037,15.84793,592
2753.894,15.61131,593
2757.751,15.38661,594
2761.608,15.20231,595
2765.465,15.07131,596
2769.322,14.98942,597
2773.179,14.95453,598
2777.036,14.97345,599
2780.893,15.03686,600
2784.75,15.09919,601
2788.607,15.10002,602
2792.464,15.00072,603
2796.321,14.79493,604
2800.178,14.50146,605
2804.035,14.16391,606
2807.892,13.84106,607
2811.749,13.57311,608
2815.606,13.35561,609
2819.463,13.13844,610
2823.32,12.80644,611
2827.177,12.14112,612
2831.034,10.87892,613
2834.891,8.928861,614
2838.748,6.572321,615
2842.605,4.387038,616
2846.462,2.912012,617
2850.319,2.362898,618
2854.176,2.619805,619
2858.033,3.386955,620
2861.89,4.318424,621
2865.747,5.081267,622
2869.604,5.44012,623
2873.461,5.343324,624
2877.318,4.907282,625
2881.175,4.29831,626
2885.032,3.629148,627
2888.889,2.944773,628
2892.746,2.262249,629
2896.603,1.607198,630
2900.46,1.027583,631
2904.317,0.5794642,632
2908.174,0.2894934,633
2912.031,0.1322252,634
2915.888,0.05475282,635
2919.745,0.01928669,636
2923.602,0.01326411,637
2927.459,0.03596122,638
2931.316,0.1057729,639
2935.173,0.2817999,640
2939.03,0.6533788,641
2942.887,1.294349,642
2946.744,2.224659,643
2950.601,3.397589,644
2954.458,4.701298,645
2958.315,5.982787,646
2962.172,7.105177,647
2966.029,8.001957,648
2969.886,8.68184,649
2973.743,9.192845,650
2977.6,9.571287,651
2981.457,9.769993,652
2985.314,9.609727,653
2989.171,8.885111,654
2993.028,7.630273,655
2996.885,6.25145,656
3000.742,5.244583,657
3004.599,4.713491,658
3008.456,4.263525,659
3012.313,3.452994,660
3016.17,2.281424,661
3020.027,1.158228,662
3023.884,0.4802846,663
3027.741,0.3690483,664
3031.598,0.7505144,665
3035.455,1.47366,666
3039.312,2.275727,667
3043.169,2.789904,668
3047.026,2.755836,669
3050.883,2.236807,670
3054.74,1.586706,671
3058.597,1.206178,672
3062.454,1.300539,673
3066.311,1.761934,674
3070.168,2.2347,675
3074.025,2.405985,676
3077.882,2.348582,677
3081.739,2.52098,678
3085.596,3.303427,679
3089.453,4.552258,680
3093.31,5.732908,681
3097.167,6.498488,682
3101.024,7.017811,683
3104.881,7.702826,684
3108.738,8.735804,685
3112.595,9.9416,686
3116.452,11.02732,687
3120.309,11.82448,688
3124.166,12.32382,689
3128.023,12.59324,690
3131.88,12.71083,691
3135.737,12.73526,692
3139.594,12.69947,693
3143.451,12.62484,694
3147.308,12.53407,695
3151.165,12.44603,696
3155.022,12.37748,697
3158.879,12.36207,698
3162.736,12.44194,699
3166.593,12.61621,700
3170.45,12.81789,701
3174.307,12.96934,702
3178.164,13.04645,703
3182.021,13.06568,704
3185.878,13.03192,705
3189.735,12.93746,706
3193.592,12.80144,707
3197.449,12.66896,708
3201.306,12.56802,709
